-0.078125
-0.11125
-0.14
-0.126875
-0.119375
-0.14
-0.18
-0.1925
-0.204375
-0.211875
-0.23625
-0.27875
-0.305625
-0.298125
-0.275625
-0.3
-0.31375
-0.33625
-0.34
-0.3575
-0.385625
-0.405625
-0.404375
-0.41
-0.42625
-0.45875
-0.489375
-0.51
-0.51625
-0.518125
-0.533125
-0.56
-0.586875
-0.60125
-0.598125
-0.6
-0.62875
-0.649375
-0.640625
-0.6525
-0.67375
-0.68
-0.6725
-0.65125
-0.656875
-0.691875
-0.7
-0.701875
-0.68
-0.66375
-0.69625
-0.713125
-0.733125
-0.73875
-0.71
-0.673125
-0.620625
-0.568125
-0.503125
-0.4
-0.24875
-0.18375
-0.22
-0.31875
-0.510625
-0.679375
-0.820625
-0.903125
-0.903125
-0.88
-0.835625
-0.808125
-0.775625
-0.765625
-0.759375
-0.74
-0.738125
-0.734375
-0.71125
-0.710625
-0.694375
-0.699375
-0.70625
-0.705625
-0.71125
-0.71625
-0.69125
-0.681875
-0.675625
-0.684375
-0.680625
-0.679375
-0.68
-0.66
-0.641875
-0.646875
-0.668125
-0.666875
-0.658125
-0.633125
-0.64
-0.64375
-0.64875
-0.64
-0.611875
-0.581875
-0.58
-0.57
-0.54625
-0.53375
-0.545625
-0.563125
-0.551875
-0.5375
-0.5175
-0.511875
-0.521875
-0.518125
-0.5
-0.488125
-0.5
-0.516875
-0.53
-0.511875
-0.54125
-0.510625
-0.556875
-0.586875
-0.600625
-0.603125
-0.63375
-0.66125
-0.68
-0.693125
-0.695625
-0.7075
-0.734375
-0.744375
-0.75375
-0.758125
-0.740625
-0.73375
-0.720625
-0.7
-0.691875
-0.694375
-0.701875
-0.71875
-0.70875
-0.674375
-0.67375
-0.67125
-0.67625
-0.66
-0.62625
-0.6225
-0.630625
-0.625625
-0.611875
-0.58875
-0.58625
-0.5825
-0.58625
-0.57
-0.531875
-0.524375
-0.523125
-0.52875
-0.52
-0.498125
-0.491875
-0.5
-0.503125
-0.495625
-0.48
-0.481875
-0.4625
-0.46875
-0.453125
-0.438125
-0.434375
-0.433125
-0.446875
-0.43
-0.41125
-0.40375
-0.39625
-0.381875
-0.3725
-0.37
-0.36625
-0.365625
-0.358125
-0.336875
-0.31625
-0.31625
-0.32375
-0.336875
-0.345
-0.316875
-0.290625
-0.27625
-0.250625
-0.2675
-0.248125
-0.245625
-0.263125
-0.275625
-0.290625
-0.271875
-0.26875
-0.290625
-0.276875
-0.270625
-0.265625
-0.290625
-0.2975
-0.3
-0.3
-0.294375
-0.290625
-0.290625
-0.290625
-0.266875
-0.25
-0.24
-0.2425
-0.23625
-0.235625
-0.23375
-0.223125
-0.235625
-0.213125
-0.225625
-0.210625
-0.21625
-0.26125
-0.26
-0.24875
-0.18625
-0.13125
-0.061875
-0.01375
0.069375
0.219375
0.34
0.366875
0.281875
0.110625
-0.05
-0.190625
-0.3175
-0.375625
-0.348125
-0.290625
-0.251875
-0.244375
-0.234375
-0.179375
-0.16375
-0.14
-0.13
-0.1425
-0.12125
-0.1025
-0.099375
-0.0975
-0.1
-0.086875
-0.065625
-0.065625
-0.069375
-0.0625
-0.040625
-0.031875
-0.04
-0.068125
-0.065625
-0.048125
-0.014375
-0.02625
-0.04375
-0.01875
0.023125
0.020625
0.01625
-0.001875
-0.01125
0.02
0.0525
0.05375
0.044375
0.05125
0.06625
0.08
0.080625
0.08
0.08
0.10375
0.120625
0.12
0.124375
0.14
0.158125
0.16875
0.125625
0.12
0.126875
0.103125
0.11125
0.10625
0.088125
0.06
0.035625
0.019375
-0.005625
-0.024375
-0.04625
-0.06
-0.076875
-0.088125
-0.106875
-0.109375
-0.100625
-0.089375
-0.090625
-0.113125
-0.12625
-0.106875
-0.08
-0.084375
-0.08375
-0.1
-0.100625
-0.088125
-0.0625
-0.078125
-0.08
-0.08
-0.066875
-0.065625
-0.071875
-0.06375
-0.03875
-0.0025
-0.01
-0.02625
-0.040625
-0.039375
-0.02625
-0.02
-0.016875
-0.018125
-0.010625
-0.00375
-0.00625
-0.03125
-0.06
-0.02
0.004375
0.02375
0.01375
0.011875
0.006875
0.036875
0.029375
0.040625
0.050625
0.04
0.049375
0.049375
0.04
0.04
0.039375
0.04
0.038125
0.028125
0.04
0.04875
0.009375
0.05375
0.071875
0.06
0.07
0.08
0.08625
0.091875
0.116875
0.12875
0.133125
0.11375
0.09375
0.08
0.0825
0.09
0.08125
0.05625
0.04375
0.06
0.076875
0.0775
0.06
0.04
0.040625
0.050625
0.063125
0.05875
0.050625
0.059375
0.091875
0.05625
0.03375
0.044375
0.07875
0.0625
0.07
0.060625
0.050625
0.051875
0.05875
0.089375
0.049375
0.03625
0.06
0.124375
0.1875
0.234375
0.280625
0.34
0.465625
0.590625
0.620625
0.5425
0.379375
0.188125
0.02625
-0.09375
-0.141875
-0.12
-0.06
-0.02
0.011875
0.02625
0.054375
0.069375
0.075625
0.08875
0.100625
0.119375
0.12
0.12
0.10625
0.098125
0.094375
0.12
0.125625
0.11625
0.1175
0.0925
0.133125
0.123125
0.11
0.10375
0.148125
0.13
0.13125
0.12375
0.13125
0.15875
0.178125
0.173125
0.159375
0.154375
0.166875
0.181875
0.19625
0.18625
0.17875
0.188125
0.206875
0.22
0.22625
0.2325
0.25
0.27
0.25625
0.26
0.244375
0.24
0.2575
0.26875
0.255625
0.2325
0.2225
0.226875
0.213125
0.180625
0.14875
0.125625
0.111875
0.090625
0.06125
0.03875
0.0125
0.014375
0.00875
0.00625
-0.02375
-0.020625
-0.019375
-0.02
-0.03875
-0.050625
-0.050625
-0.04
-0.033125
-0.038125
-0.04875
-0.046875
-0.04
-0.056875
-0.04625
-0.033125
-0.03
-0.0075
0.001875
0.00625
-0.01125
-0.008125
0
0
-0.003125
-0.01
-0.008125
0.00625
0.01375
0.010625
-0.02
-0.009375
-0.01875
0
0.019375
0.02
0.023125
0.034375
0.020625
0.006875
-0.005625
-0.000625
0.01625
0.019375
0.009375
-0.001875
-0.02375
-0.001875
0.025
-0.020625
-0.010625
-0.008125
-0.00875
0.00375
-0.01
0.01
0.011875
0.005625
0.02
0.014375
0.023125
0.044375
0.024375
0.03625
0.036875
0.021875
0.028125
0.040625
0.043125
0.04125
0.045
0.0625
0.081875
0.070625
0.043125
-0.0025
0.016875
0.0275
0.029375
0.018125
-0.000625
0.01
0.016875
0.016875
0.009375
-0.0025
-0.010625
-0.008125
-0.003125
-0.01
-0.01875
-0.008125
0.003125
0
0.008125
0.01
0.013125
0.0475
0.029375
0.02
0.04375
0.000625
0.011875
0.0175
0.02625
-0.015625
-0.011875
0.014375
0.05
0.1175
0.17
0.22
0.28375
0.40625
0.531875
0.55
0.474375
0.300625
0.105625
-0.0875
-0.194375
-0.2
-0.140625
-0.07875
-0.066875
-0.059375
-0.01875
0.00125
0.0125
0.034375
0.039375
0.028125
0.046875
0.03875
0.034375
0.04
0.046875
0.06625
0.09
0.0825
0.06875
0.068125
0.08375
0.09125
0.09
0.084375
0.08625
0.0925
0.07
0.08
0.053125
0.091875
0.11125
0.1225
0.091875
0.118125
0.128125
0.14375
0.16
0.163125
0.169375
0.18625
0.20125
0.2
0.191875
0.19125
0.201875
0.2275
0.23125
0.23125
0.221875
0.221875
0.2
0.240625
0.256875
0.233125
0.23375
0.24375
0.228125
0.19875
0.16
0.133125
0.118125
0.089375
0.06625
0.03375
0
0.00625
-0.005625
-0.023125
-0.0525
-0.073125
-0.07125
-0.064375
-0.069375
-0.085625
-0.073125
-0.075625
-0.07
-0.078125
-0.09125
-0.085625
-0.07125
-0.061875
-0.05625
-0.06875
-0.08625
-0.08875
-0.06375
-0.066875
-0.06875
-0.069375
-0.06
-0.050625
-0.0475
-0.039375
-0.031875
-0.03
-0.021875
-0.024375
-0.03875
-0.04625
-0.038125
-0.021875
-0.018125
-0.043125
-0.06125
-0.038125
-0.031875
-0.024375
-0.038125
-0.043125
-0.019375
-0.036875
-0.036875
-0.031875
-0.04
-0.018125
-0.015625
-0.023125
-0.0325
-0.04375
-0.036875
-0.02625
-0.033125
-0.05125
-0.04875
-0.03625
-0.01625
-0.041875
-0.056875
-0.07625
-0.0425
-0.04
-0.035
-0.04
-0.044375
-0.033125
-0.028125
-0.01
-0.04
-0.04
-0.031875
-0.018125
-0.008125
0.006875
0.009375
0.008125
0.013125
0.001875
-0.0025
0.00625
0.023125
0.04
0.026875
0.018125
0.013125
0.019375
0.0275
0.02
-0.00625
-0.03
-0.00875
-0.004375
-0.00625
-0.019375
-0.02
-0.0175
-0.025625
-0.04
-0.050625
-0.053125
-0.045625
-0.035625
-0.030625
-0.024375
-0.02
-0.01375
-0.018125
-0.015625
-0.018125
-0.015625
-0.008125
-0.014375
-0.009375
-0.02125
-0.013125
-0.021875
-0.013125
-0.026875
-0.046875
-0.00375
0.06375
0.130625
0.17875
0.19625
0.278125
0.429375
0.55125
0.545625
0.42
0.204375
-0.02375
-0.181875
-0.241875
-0.21625
-0.163125
-0.1075
-0.07
-0.0525
-0.035625
0.013125
0.006875
0.035625
0.04125
0.04
0.049375
0.06
0.08
0.069375
0.045625
0.04375
0.059375
0.063125
0.06
0.049375
0.05375
0.054375
0.073125
0.07875
0.036875
0.068125
0.083125
0.088125
0.091875
0.079375
0.08125
0.13
0.110625
0.126875
0.12
0.14
0.149375
0.164375
0.1675
0.156875
0.15875
0.196875
0.19625
0.19875
0.185625
0.18375
0.201875
0.220625
0.236875
0.24
0.233125
0.24125
0.28375
0.23625
0.2
0.19625
0.19875
0.215625
0.158125
0.129375
0.109375
0.090625
0.07625
0.0425
0.000625
-0.02375
-0.0175
-0.03625
-0.03625
-0.056875
-0.05875
-0.04
-0.02875
-0.04
-0.060625
-0.070625
-0.060625
-0.051875
-0.0525
-0.078125
-0.07375
-0.066875
-0.055
-0.05875
-0.0675
-0.0625
-0.05
-0.0425
-0.044375
-0.055625
-0.055
-0.034375
-0.01125
-0.00125
-0.00125
-0.019375
-0.008125
0.006875
0.001875
-0.025625
-0.033125
-0.024375
-0.0175
-0.02125
-0.03375
-0.03375
-0.040625
-0.020625
-0.01875
-0.021875
-0.025625
-0.016875
-0.003125
-0.00125
-0.000625
-0.00875
0.00875
0.023125
0.013125
-0.005625
-0.0125
-0.00125
0.005625
0
-0.014375
-0.04
-0.016875
-0.01375
-0.01125
-0.014375
-0.010625
-0.003125
-0.0075
0.01625
-0.000625
-0.006875
0
0.0075
0
-0.016875
-0.01
0.009375
0.02625
0.01125
-0.015625
-0.01
0.009375
0.03625
0.05125
0.06
0.070625
0.08125
0.08
0.08
0.07
0.044375
0.07375
0.0975
0.10375
0.07625
0.055625
0.081875
0.08
0.06875
0.045625
0.02875
0.02
0.01875
0.0425
0.039375
0.02
0.023125
0.036875
0.033125
0.003125
0
0
0.009375
0.013125
0.003125
0.00125
0.006875
0.026875
0.011875
0
-0.00375
-0.00125
0.005625
0.05
0.039375
0.040625
0.020625
0.011875
0.011875
-0.00375
-0.020625
0.010625
0.070625
0.134375
0.188125
0.218125
0.265625
0.398125
0.52125
0.55
0.454375
0.281875
0.06125
-0.129375
-0.220625
-0.2
-0.123125
-0.061875
-0.034375
-0.024375
-0.019375
0
0.024375
0.04125
0.04125
0.04
0.04
0.056875
0.06
0.045625
0.053125
0.058125
0.06
0.06125
0.0475
0.06
0.06625
0.06625
0.090625
0.09375
0.07875
0.093125
0.110625
0.114375
0.09375
0.089375
0.09625
0.118125
0.123125
0.118125
0.12
0.121875
0.13
0.144375
0.158125
0.183125
0.2
0.211875
0.2125
0.209375
0.19625
0.204375
0.23125
0.24
0.240625
0.236875
0.23375
0.244375
0.246875
0.234375
0.211875
0.205625
0.2
0.186875
0.164375
0.13
0.12375
0.114375
0.08
0.040625
0.016875
0.003125
0
-0.02
-0.0475
-0.069375
-0.06875
-0.061875
-0.07
-0.080625
-0.061875
-0.086875
-0.088125
-0.07625
-0.0925
-0.1075
-0.09125
-0.06875
-0.0675
-0.08
-0.076875
-0.0725
-0.06625
-0.070625
-0.06875
-0.08125
-0.08375
-0.06
-0.056875
-0.071875
-0.084375
-0.08
-0.058125
-0.055625
-0.09125
-0.069375
-0.076875
-0.050625
-0.036875
-0.04625
-0.059375
-0.05875
-0.045625
-0.049375
-0.06125
-0.06625
-0.041875
-0.04125
-0.04625
-0.06
-0.074375
-0.055625
-0.038125
-0.033125
-0.0525
-0.06375
-0.045625
-0.04375
-0.014375
-0.030625
-0.04375
-0.036875
-0.021875
-0.026875
-0.048125
-0.05375
-0.05
-0.034375
-0.036875
-0.051875
-0.0625
-0.049375
-0.031875
-0.025625
-0.040625
-0.04625
-0.04375
-0.03125
-0.030625
-0.033125
-0.050625
-0.031875
-0.005625
-0.005625
-0.03125
-0.050625
-0.0225
-0.0375
-0.01875
-0.03
-0.02875
-0.01
0.018125
0.0225
0.04
-0.008125
0.01125
0.02
0.04625
0.0375
0.02
0.019375
0.04125
0.051875
0.016875
0.010625
-0.014375
-0.010625
-0.00375
-0.026875
-0.016875
-0.018125
-0.010625
-0.0175
-0.03625
-0.04875
-0.03
-0.0075
-0.005625
-0.016875
-0.024375
-0.029375
-0.014375
-0.010625
-0.019375
-0.039375
-0.030625
-0.015625
-0.0125
-0.024375
-0.034375
-0.02375
-0.01
-0.02
0.01625
-0.031875
-0.034375
-0.02625
0.009375
0.06
0.134375
0.195625
0.250625
0.349375
0.464375
0.52
0.480625
0.366875
0.171875
-0.026875
-0.16125
-0.21
-0.18125
-0.13625
-0.09
-0.063125
-0.041875
-0.015625
0.00375
0.01
0.004375
0.025625
0.050625
0.053125
0.048125
0.036875
0.025625
0.044375
0.059375
0.05
0.041875
0.05375
0.06625
0.07
0.068125
0.046875
0.06
0.08875
0.11375
0.105625
0.088125
0.08375
0.1075
0.123125
0.09875
0.141875
0.13
0.16125
0.141875
0.14625
0.15
0.15375
0.16875
0.19
0.209375
0.2075
0.21625
0.230625
0.24
0.231875
0.214375
0.214375
0.234375
0.2425
0.235625
0.21625
0.2125
0.213125
0.2175
0.189375
0.168125
0.14
0.13375
0.114375
0.08
0.06875
0.050625
0.044375
0.028125
0
-0.04
-0.03875
-0.053125
-0.0425
-0.060625
-0.076875
-0.08
-0.06625
-0.076875
-0.073125
-0.08375
-0.068125
-0.069375
-0.066875
-0.08
-0.050625
-0.05125
-0.029375
-0.01625
-0.03
-0.04625
-0.045625
-0.026875
-0.016875
-0.034375
-0.045625
-0.034375
-0.02
-0.01375
-0.0225
-0.0275
-0.02125
0.000625
0.011875
0.02625
0.009375
0.02
0.043125
0.045
0.03375
0.014375
0.02
0.03375
0.075625
0.039375
0.026875
0.026875
0.043125
0.046875
0.045625
0.04
0.048125
0.0425
0.066875
0.06
0.049375
0.058125
0.0725
0.074375
0.07625
0.06625
0.066875
0.0875
0.10875
0.108125
0.09625
0.091875
0.116875
0.12
0.103125
0.086875
0.093125
0.110625
0.129375
0.13625
0.138125
0.135625
0.140625
0.14125
0.134375
0.12375
0.13625
0.165625
0.168125
0.165625
0.154375
0.154375
0.176875
0.194375
0.18375
0.169375
0.18
0.20375
0.22
0.221875
0.203125
0.18625
0.186875
0.19375
0.18375
0.15
0.159375
0.164375
0.168125
0.169375
0.14
0.140625
0.155625
0.15375
0.135625
0.126875
0.14
0.16
0.16875
0.171875
0.16125
0.16
0.1725
0.173125
0.168125
0.160625
0.15625
0.163125
0.173125
0.17125
0.159375
0.15375
0.146875
0.153125
0.169375
0.205625
0.263125
0.329375
0.39625
0.48375
0.616875
0.71875
0.725625
0.61875
0.4
0.19
0.02375
-0.048125
-0.0375
-0.0275
0.02375
0.04625
0.06625
0.099375
0.114375
0.12375
0.13625
0.14625
0.155
0.143125
0.1225
0.13
0.141875
0.155625
0.15625
0.149375
0.141875
0.164375
0.18
0.16875
0.14875
0.15
0.16
0.169375
0.165
0.161875
0.1475
0.158125
0.166875
0.16375
0.160625
0.16625
0.18
0.19125
0.18625
0.18
0.18
0.205625
0.22
0.21875
0.216875
0.2375
0.239375
0.24875
0.246875
0.236875
0.25125
0.27
0.286875
0.28125
0.266875
0.2525
0.26375
0.28
0.276875
0.230625
0.19625
0.184375
0.181875
0.155625
0.1075
0.060625
0.051875
0.038125
0
-0.02375
-0.03375
-0.033125
-0.03875
-0.0625
-0.09625
-0.09375
-0.075
-0.048125
-0.06875
-0.080625
-0.084375
-0.0725
-0.06
-0.071875
-0.084375
-0.09
-0.07375
-0.060625
-0.075625
-0.088125
-0.091875
-0.08375
-0.071875
-0.075625
-0.09
-0.08625
-0.076875
-0.06625
-0.07125
-0.08
-0.080625
-0.05875
-0.023125
-0.04
-0.063125
-0.063125
-0.049375
-0.033125
-0.035625
-0.04625
-0.055625
-0.04
-0.036875
-0.041875
-0.05375
-0.05625
-0.02875
-0.02
-0.03625
-0.046875
-0.049375
-0.010625
-0.028125
-0.050625
-0.041875
-0.054375
-0.01875
-0.034375
-0.04125
-0.06
-0.06
-0.046875
-0.04625
-0.05
-0.056875
-0.043125
-0.01875
-0.015625
-0.02
-0.04875
-0.059375
-0.04
-0.02375
-0.033125
-0.05125
-0.05625
-0.044375
-0.033125
-0.008125
-0.046875
-0.05375
-0.0475
-0.063125
-0.06125
-0.064375
-0.05875
-0.045625
-0.028125
-0.02875
-0.036875
-0.02875
-0.00875
0.01625
0.00375
-0.00875
-0.019375
0
0.013125
0.010625
0.0025
0.006875
0.011875
0.0275
0.02
0.00625
0
-0.008125
-0.02625
-0.02
-0.034375
-0.058125
-0.034375
-0.035625
-0.040625
-0.064375
-0.061875
-0.048125
-0.04
-0.04
-0.048125
-0.046875
-0.04625
-0.0425
-0.019375
-0.00625
-0.01
-0.005625
0.003125
-0.003125
-0.02625
-0.02625
0.01375
0.004375
-0.01
-0.0575
-0.045
0.00625
0.089375
0.149375
0.17125
0.210625
0.349375
0.49
0.5625
0.488125
0.326875
0.120625
-0.048125
-0.175625
-0.220625
-0.17875
-0.10125
-0.054375
-0.041875
-0.04
-0.02
0.026875
0.05125
0.044375
0.02125
0.02
0.039375
0.05
0.04
0.025
0.041875
0.070625
0.091875
0.0825
0.06
0.046875
0.06
0.07375
0.075
0.06
0.06
0.061875
0.06625
0.073125
0.07
0.083125
0.09
0.1025
0.1
0.1
0.094375
0.098125
0.131875
0.1425
0.140625
0.14
0.129375
0.14875
0.165625
0.151875
0.149375
0.178125
0.196875
0.1925
0.17125
0.160625
0.18
0.1975
0.2
0.178125
0.164375
0.16875
0.166875
0.135625
0.11125
0.08125
0.080625
0.0775
0.044375
-0.000625
-0.01375
-0.01375
-0.028125
-0.06625
-0.071875
-0.08125
-0.080625
-0.070625
-0.06
-0.059375
-0.068125
-0.0575
-0.041875
-0.050625
-0.069375
-0.0775
-0.064375
-0.06375
-0.0675
-0.07625
-0.073125
-0.06375
-0.053125
-0.04625
-0.071875
-0.08
-0.068125
-0.050625
-0.046875
-0.05625
-0.06
-0.03125
-0.005625
-0.005625
-0.024375
-0.040625
-0.04375
-0.021875
-0.01375
-0.040625
-0.03875
-0.02
-0.014375
-0.02625
-0.029375
-0.04
-0.03
-0.010625
-0.00875
-0.03
-0.035625
-0.015625
0.008125
0
-0.00375
-0.02375
-0.019375
0.00375
-0.00375
-0.021875
-0.034375
-0.0275
-0.01375
-0.01375
-0.026875
-0.029375
-0.02375
-0.013125
0.00125
-0.006875
-0.02
-0.01
0
-0.004375
-0.020625
-0.0275
-0.01375
0.00875
0.015625
0.004375
-0.001875
0.001875
0.008125
0.0075
-0.009375
-0.0175
-0.004375
0.02
0.0225
0.0175
0.0275
0.056875
0.074375
0.078125
0.075625
0.07375
0.0825
0.1025
0.1
0.089375
0.089375
0.096875
0.12
0.13125
0.113125
0.08875
0.08125
0.09375
0.08375
0.08
0.07375
0.081875
0.096875
0.091875
0.0675
0.046875
0.044375
0.05125
0.058125
0.043125
0.034375
0.045625
0.0675
0.069375
0.058125
0.048125
0.056875
0.065625
0.068125
0.06125
0.06625
0.078125
0.086875
0.079375
0.054375
0.04625
0.048125
0.054375
0.080625
0.12
0.181875
0.26
0.30875
0.349375
0.464375
0.569375
0.589375
0.50625
0.31
0.07
-0.110625
-0.16
-0.118125
-0.066875
-0.038125
-0.006875
0.02125
0.055625
0.075625
0.07
0.083125
0.088125
0.099375
0.099375
0.086875
0.080625
0.095625
0.110625
0.10375
0.1
0.103125
0.11
0.123125
0.12625
0.111875
0.113125
0.116875
0.13
0.129375
0.123125
0.113125
0.118125
0.131875
0.139375
0.12625
0.130625
0.145625
0.150625
0.15125
0.15875
0.16625
0.186875
0.201875
0.204375
0.195625
0.19
0.204375
0.226875
0.24
0.229375
0.22
0.228125
0.243125
0.24
0.22625
0.216875
0.21
0.21875
0.220625
0.199375
0.178125
0.16
0.15375
0.125625
0.075625
0.0225
0.003125
-0.011875
-0.038125
-0.070625
-0.091875
-0.098125
-0.083125
-0.09625
-0.12
-0.1375
-0.14
-0.131875
-0.133125
-0.141875
-0.151875
-0.151875
-0.14
-0.134375
-0.12875
-0.12375
-0.12125
-0.119375
-0.115625
-0.12
-0.12875
-0.12625
-0.12
-0.12
-0.129375
-0.13375
-0.133125
-0.118125
-0.108125
-0.105625
-0.10875
-0.100625
-0.081875
-0.0825
-0.094375
-0.1
-0.09375
-0.08
-0.07625
-0.09375
-0.10375
-0.096875
-0.083125
-0.078125
-0.084375
-0.093125
-0.08125
-0.063125
-0.060625
-0.070625
-0.0825
-0.07
-0.054375
-0.058125
-0.073125
-0.080625
-0.06875
-0.053125
-0.06
-0.076875
-0.089375
-0.086875
-0.07125
-0.064375
-0.080625
-0.090625
-0.086875
-0.06625
-0.06125
-0.07375
-0.085625
-0.081875
-0.06875
-0.0675
-0.070625
-0.07875
-0.078125
-0.060625
-0.058125
-0.069375
-0.08
-0.078125
-0.06
-0.06125
-0.085625
-0.093125
-0.076875
-0.055625
-0.04125
-0.04625
-0.04625
-0.04
-0.029375
-0.035625
-0.055
-0.055625
-0.038125
-0.011875
-0.005625
-0.02875
-0.04
-0.03125
-0.021875
-0.033125
-0.055625
-0.08
-0.080625
-0.071875
-0.06625
-0.07
-0.080625
-0.085625
-0.081875
-0.09
-0.10375
-0.111875
-0.09625
-0.06625
-0.06125
-0.088125
-0.1075
-0.101875
-0.08375
-0.078125
-0.095625
-0.10375
-0.09625
-0.08375
-0.081875
-0.08
-0.081875
-0.079375
-0.073125
-0.081875
-0.116875
-0.113125
-0.061875
0.005625
0.079375
0.11625
0.159375
0.275625
0.406875
0.444375
0.374375
0.19625
-0.01
-0.17
-0.276875
-0.31
-0.290625
-0.226875
-0.16625
-0.13375
-0.1225
-0.1075
-0.0725
-0.0425
-0.039375
-0.0475
-0.05375
-0.05
-0.03125
-0.023125
-0.04125
-0.06
-0.0475
-0.02
0.004375
0.00625
-0.00625
-0.009375
0.00875
0.011875
0.003125
-0.01125
-0.013125
0.008125
0.02
0.00875
-0.000625
-0.0025
0.01875
0.04875
0.04125
0.026875
0.038125
0.061875
0.08
0.083125
0.085625
0.1
0.118125
0.136875
0.129375
0.124375
0.129375
0.14875
0.16
0.15125
0.139375
0.14375
0.16875
0.166875
0.144375
0.12125
0.1125
0.12
0.12625
0.1
0.06
0.034375
0.0175
-0.006875
-0.036875
-0.060625
-0.07875
-0.080625
-0.091875
-0.113125
-0.139375
-0.135625
-0.13
-0.13875
-0.14
-0.1375
-0.138125
-0.119375
-0.113125
-0.11
-0.124375
-0.118125
-0.114375
-0.1
-0.103125
-0.11
-0.114375
-0.10375
-0.091875
-0.12
-0.12
-0.110625
-0.088125
-0.07875
-0.080625
-0.0875
-0.083125
-0.07375
-0.08
-0.08
-0.08
-0.0475
-0.03875
-0.03875
-0.04
-0.06
-0.05875
-0.046875
-0.0425
-0.05
-0.054375
-0.055625
-0.041875
-0.035625
-0.040625
-0.06
-0.05125
-0.039375
-0.028125
-0.04
-0.051875
-0.045625
-0.014375
-0.019375
-0.035625
-0.018125
-0.03
-0.02375
-0.020625
-0.02
-0.035
-0.040625
-0.024375
-0.010625
-0.03875
-0.0525
-0.053125
-0.030625
-0.01
-0.009375
-0.02875
-0.02125
-0.00875
-0.004375
-0.02
-0.03
-0.020625
-0.02125
-0.013125
-0.044375
-0.0275
-0.07
-0.014375
0.004375
0.008125
-0.003125
0.000625
0.034375
0.05375
0.059375
0.0375
0.040625
0.061875
0.07625
0.079375
0.056875
0.05
0.04125
0.045625
0.02
0.038125
0.004375
0.01625
0.029375
0.02
0.00375
-0.00375
-0.009375
0.01
-0.006875
-0.01375
-0.005625
0.001875
0.01875
0.009375
0.005625
0.001875
0.015
0.020625
0.015625
-0.00125
-0.005625
0.00875
0.02375
0.029375
0.02
0.016875
0.02875
0.04
0.02375
0.0625
0.11125
0.193125
0.271875
0.254375
0.31875
0.465625
0.563125
0.530625
0.38875
0.16
-0.0575
-0.181875
-0.201875
-0.156875
-0.114375
-0.06875
-0.0275
0.0075
0.0425
0.053125
0.070625
0.086875
0.091875
0.06375
0.0525
0.07
0.088125
0.114375
0.093125
0.043125
0.074375
0.09
0.10125
0.094375
0.083125
0.084375
0.1
0.105625
0.1
0.083125
0.109375
0.13
0.14
0.14
0.125625
0.136875
0.163125
0.17875
0.178125
0.189375
0.16
0.185625
0.20375
0.209375
0.18375
0.198125
0.2225
0.24125
0.250625
0.244375
0.253125
0.26
0.26625
0.26625
0.259375
0.25625
0.268125
0.26625
0.245
0.22
0.20875
0.211875
0.195625
0.168125
0.12625
0.0925
0.08375
0.066875
0.036875
-0.0125
-0.03
-0.02625
-0.023125
-0.035625
-0.049375
-0.055625
-0.05125
-0.04875
-0.059375
-0.074375
-0.07375
-0.045625
-0.05375
-0.075625
-0.0825
-0.085
-0.0675
-0.048125
-0.055
-0.063125
-0.055625
-0.03375
-0.03625
-0.02125
-0.070625
-0.070625
-0.050625
-0.04375
-0.065625
-0.068125
-0.06875
-0.06
-0.041875
-0.0525
-0.064375
-0.058125
-0.045625
-0.029375
-0.044375
-0.063125
-0.059375
-0.03375
-0.00375
0
-0.03125
-0.040625
-0.034375
-0.016875
-0.0475
-0.040625
-0.04
-0.025625
-0.018125
-0.03125
-0.048125
-0.050625
-0.013125
-0.02
-0.02
-0.04
-0.0325
-0.0075
0.009375
0.004375
-0.008125
-0.019375
-0.013125
-0.008125
-0.009375
-0.01625
-0.02125
-0.00875
-0.023125
0.00375
-0.03625
-0.036875
-0.00875
-0.005625
-0.009375
-0.013125
-0.01
-0.00625
0.003125
-0.00875
-0.02125
-0.038125
-0.02
-0.003125
-0.00375
0
0
0.021875
0.038125
0.023125
-0.001875
-0.00625
0.014375
0.038125
0.038125
0.056875
0.060625
0.064375
0.078125
0.051875
0.025625
0.00875
0.000625
-0.00375
-0.005625
-0.02
-0.01625
0
0.011875
-0.001875
-0.029375
-0.06125
-0.03
-0.009375
0.005625
0.000625
-0.009375
-0.010625
-0.000625
-0.010625
-0.030625
-0.021875
-0.00875
-0.000625
-0.01625
-0.0225
-0.023125
-0.00375
-0.009375
-0.006875
-0.031875
-0.038125
-0.005625
0.061875
0.1325
0.176875
0.2
0.265625
0.400625
0.495625
0.48
0.3875
0.22125
0
-0.176875
-0.26625
-0.24625
-0.18
-0.114375
-0.080625
-0.07875
-0.06
-0.01875
0.015625
0.0075
0.0025
0.000625
0.010625
0.02
0.02
-0.00125
-0.01
-0.008125
0.001875
0.006875
-0.00625
-0.01
-0.0075
-0.008125
-0.010625
-0.019375
-0.008125
0.00125
0.020625
0.028125
0.01125
0.0125
0.021875
0.046875
0.04625
0.03375
0.033125
0.060625
0.066875
0.06625
0.06
0.066875
0.084375
0.11
0.096875
0.098125
0.1
0.13125
0.166875
0.19125
0.17
0.16
0.17125
0.18375
0.17625
0.148125
0.163125
0.144375
0.13875
0.108125
0.07625
0.06
0.048125
0.038125
-0.0075
-0.043125
-0.073125
-0.08125
-0.0875
-0.1
-0.120625
-0.139375
-0.139375
-0.14875
-0.149375
-0.173125
-0.179375
-0.168125
-0.1575
-0.1625
-0.186875
-0.18375
-0.170625
-0.16
-0.16
-0.171875
-0.18375
-0.16375
-0.158125
-0.16
-0.171875
-0.15875
-0.141875
-0.131875
-0.13875
-0.133125
-0.136875
-0.124375
-0.11125
-0.118125
-0.125625
-0.1225
-0.135625
-0.104375
-0.1
-0.118125
-0.120625
-0.10375
-0.086875
-0.098125
-0.103125
-0.116875
-0.10375
-0.09
-0.08
-0.070625
-0.07875
-0.074375
-0.068125
-0.075625
-0.085
-0.098125
-0.058125
-0.06375
-0.07875
-0.09375
-0.1
-0.06
-0.06
-0.048125
-0.0675
-0.08875
-0.079375
-0.060625
-0.06
-0.08875
-0.08375
-0.069375
-0.060625
-0.063125
-0.07375
-0.080625
-0.06875
-0.053125
-0.05125
-0.069375
-0.07375
-0.060625
-0.048125
-0.045625
-0.04125
-0.041875
-0.030625
-0.023125
-0.01
-0.02
-0.025
-0.015625
0.00375
0
-0.011875
-0.014375
0.02875
0.03875
0.046875
0.029375
0.010625
0.019375
0.036875
0.028125
0.00375
-0.005625
-0.003125
-0.003125
-0.010625
-0.03375
-0.030625
-0.034375
-0.02625
-0.028125
-0.014375
-0.043125
-0.04375
-0.02125
-0.02
-0.03875
-0.035625
-0.015
-0.005625
-0.000625
-0.011875
-0.019375
-0.01625
-0.00375
-0.00375
-0.01375
-0.008125
0.004375
0.000625
-0.013125
0.01125
0.06625
0.123125
0.178125
0.23625
0.29625
0.434375
0.52375
0.52625
0.43
0.2425
0.05375
-0.08625
-0.159375
-0.174375
-0.16
-0.124375
-0.08
-0.0425
-0.026875
-0.02
-0.016875
0.01125
0.043125
0.059375
0.04
0.02625
0.02875
0.060625
0.07
0.06
0.054375
0.07
0.061875
0.08
0.046875
0.04
0.05875
0.081875
0.081875
0.07625
0.061875
0.0775
0.088125
0.09125
0.086875
0.09375
0.1
0.11625
0.12
0.114375
0.12
0.13125
0.149375
0.140625
0.176875
0.184375
0.22375
0.213125
0.22375
0.208125
0.203125
0.2225
0.241875
0.24875
0.231875
0.216875
0.226875
0.244375
0.2525
0.225625
0.200625
0.189375
0.183125
0.164375
0.130625
0.096875
0.05375
0.041875
0.038125
0.015625
-0.013125
-0.028125
-0.03625
-0.025625
-0.068125
-0.08
-0.063125
-0.046875
-0.064375
-0.070625
-0.070625
-0.055
-0.048125
-0.058125
-0.08
-0.09
-0.066875
-0.0525
-0.0475
-0.06375
-0.071875
-0.065625
-0.049375
-0.043125
-0.06
-0.0575
-0.025
-0.04
-0.04
-0.05625
-0.051875
-0.005625
-0.02
-0.02
-0.024375
-0.023125
-0.013125
0
-0.006875
-0.02875
-0.036875
-0.020625
0
0.0025
-0.02125
-0.040625
-0.038125
0.038125
0.005
-0.0375
-0.03375
-0.005625
-0.00125
0.046875
-0.035625
-0.02875
-0.03
-0.00375
-0.0025
-0.018125
-0.019375
-0.01
0
-0.008125
-0.024375
-0.020625
-0.02
0.02
0.035625
0.011875
-0.006875
-0.008125
0.004375
0.015625
0.004375
-0.030625
0.010625
0.070625
0.04
0.023125
0.014375
0.02625
0.029375
0.04
0.03375
0.03875
0.060625
0.08
0.07625
0.044375
0.019375
0.02
0.03875
0.04
0.010625
0.01
0.011875
0.02
0.02
0.011875
-0.026875
-0.035625
-0.02
-0.00375
-0.026875
-0.029375
-0.028125
-0.009375
-0.00375
-0.010625
-0.02
-0.008125
0.02125
0.03375
0.018125
-0.00625
-0.005625
0.010625
0.02
0.00875
-0.011875
-0.028125
-0.004375
0.04
0.120625
0.16
0.206875
0.260625
0.424375
0.534375
0.545625
0.478125
0.32625
0.14
-0.04375
-0.163125
-0.185625
-0.14
-0.095625
-0.08
-0.06
-0.04
0
0.02
0.02875
0.03375
0.040625
0.058125
0.06
0.0775
0.046875
0.0575
0.075625
0.084375
0.08
0.07375
0.079375
0.086875
0.093125
0.0875
0.0725
0.08
0.1
0.100625
0.090625
0.080625
0.10375
0.134375
0.15125
0.14
0.126875
0.136875
0.15875
0.16
0.12
0.1525
0.14875
0.189375
0.196875
0.194375
0.221875
0.201875
0.223125
0.23875
0.223125
0.218125
0.234375
0.266875
0.273125
0.258125
0.238125
0.23375
0.24125
0.225625
0.18875
0.15
0.13125
0.146875
0.10875
0.0725
0.04
0.01625
0.004375
-0.02
-0.028125
-0.045625
-0.05
-0.04625
-0.051875
-0.068125
-0.079375
-0.069375
-0.04875
-0.05625
-0.0675
-0.090625
-0.09125
-0.08
-0.06875
-0.07375
-0.08125
-0.056875
-0.0625
-0.069375
-0.08125
-0.088125
-0.08
-0.044375
-0.060625
-0.063125
-0.08
-0.063125
-0.045625
-0.05875
-0.061875
-0.07375
-0.0575
-0.04
-0.02875
-0.020625
-0.03625
-0.033125
-0.010625
-0.00375
-0.02125
-0.050625
-0.02375
-0.005625
0.003125
-0.000625
-0.005625
-0.003125
-0.026875
-0.003125
-0.02
-0.030625
-0.029375
-0.01125
0
-0.018125
-0.04
-0.02125
-0.00875
0
-0.011875
-0.02125
-0.02
0.000625
0.016875
0.00875
-0.01
-0.004375
0.0125
0.02375
0.00375
0.010625
-0.004375
0.010625
0.03875
0.014375
0
0.003125
0.01375
0.048125
0.051875
0.04875
0.053125
0.060625
0.08125
0.08
0.079375
0.08
0.094375
0.101875
0.093125
0.08
0.066875
0.066875
0.06125
0.04375
0.025625
0.020625
0.036875
0.046875
0.033125
0.02125
0.016875
0.018125
0.013125
0.000625
-0.011875
0
0.00875
0.01625
0.02
0.00375
0.008125
0.021875
0.034375
0.018125
0.001875
0.00125
0.011875
0.014375
0.009375
0.003125
0.006875
0.01375
-0.000625
-0.013125
0.02
0.083125
0.164375
0.225625
0.250625
0.316875
0.454375
0.550625
0.52625
0.38375
0.181875
-0.079375
-0.2
-0.230625
-0.215625
-0.17125
-0.130625
-0.08
-0.031875
-0.010625
0.009375
0.01125
0.0175
0.020625
0.023125
0.04625
0.038125
0.048125
0.05125
0.04125
0.036875
0.038125
0.043125
0.04875
0.0275
0.01875
0.04
0.054375
0.07125
0.06125
0.054375
0.070625
0.095625
0.11375
0.12625
0.094375
0.09875
0.125625
0.114375
0.138125
0.1225
0.131875
0.14875
0.160625
0.1725
0.16375
0.174375
0.204375
0.216875
0.22125
0.22
0.219375
0.241875
0.26125
0.263125
0.251875
0.240625
0.24875
0.24125
0.22875
0.2
0.206875
0.163125
0.15875
0.104375
0.08
0.06
0.043125
0.056875
-0.015625
-0.03875
-0.045625
-0.04125
-0.049375
-0.066875
-0.08375
-0.08
-0.06375
-0.06
-0.08
-0.094375
-0.08875
-0.104375
-0.066875
-0.08
-0.093125
-0.08
-0.066875
-0.06
-0.07625
-0.07875
-0.078125
-0.069375
-0.056875
-0.076875
-0.07875
-0.085
-0.08375
-0.071875
-0.091875
-0.09625
-0.096875
-0.089375
-0.08
-0.083125
-0.0925
-0.083125
-0.06
-0.04625
-0.05625
-0.0725
-0.07625
-0.06375
-0.06
-0.06
-0.070625
-0.070625
-0.061875
-0.043125
-0.063125
-0.084375
-0.070625
-0.050625
-0.051875
-0.068125
-0.10375
-0.066875
-0.064375
-0.05125
-0.054375
-0.070625
-0.076875
-0.060625
-0.06
-0.063125
-0.064375
-0.063125
-0.053125
-0.050625
-0.05875
-0.069375
-0.069375
-0.06
-0.055625
-0.03625
-0.078125
-0.065625
-0.06
-0.0475
-0.04625
-0.050625
-0.045625
-0.02375
-0.03
-0.029375
-0.046875
-0.041875
-0.025625
-0.01
0
-0.054375
-0.020625
-0.0125
0.00125
0.01
0.004375
0.019375
0.024375
0.039375
0.039375
0.04
0.023125
0.013125
0.001875
-0.01375
-0.02375
-0.021875
-0.005625
-0.00875
-0.02
-0.025625
-0.020625
-0.016875
-0.01875
-0.02375
-0.023125
-0.036875
-0.019375
0.011875
-0.011875
-0.01
0
0.04
0.029375
0.016875
0.01
0.0175
0.023125
0.043125
0.029375
0.02
0.029375
0.02
0.03375
0.06125
0.100625
0.16375
0.22
0.266875
0.318125
0.45
0.546875
0.548125
0.464375
0.256875
0.04
-0.118125
-0.196875
-0.133125
-0.083125
-0.06
-0.04
0.005625
0.02125
0.050625
0.07375
0.07375
0.0825
0.09875
0.108125
0.103125
0.090625
0.098125
0.1
0.095625
0.08375
0.08375
0.09625
0.10375
0.086875
0.060625
0.063125
0.098125
0.103125
0.1
0.094375
0.091875
0.130625
0.139375
0.13625
0.13
0.130625
0.13625
0.14
0.13625
0.138125
0.15125
0.18
0.183125
0.183125
0.179375
0.18125
0.195625
0.2125
0.210625
0.1975
0.210625
0.235625
0.260625
0.25625
0.23375
0.268125
0.26125
0.2275
0.203125
0.178125
0.161875
0.154375
0.129375
0.099375
0.06375
0.04
0.009375
-0.018125
-0.045625
-0.06375
-0.07125
-0.06375
-0.08
-0.1
-0.108125
-0.1025
-0.091875
-0.083125
-0.1125
-0.11875
-0.123125
-0.110625
-0.095625
-0.09625
-0.11
-0.135625
-0.113125
-0.108125
-0.11
-0.12
-0.121875
-0.11
-0.098125
-0.09875
-0.100625
-0.099375
-0.0675
-0.075625
-0.054375
-0.100625
-0.1
-0.07125
-0.055625
-0.06
-0.065625
-0.061875
-0.070625
-0.046875
-0.05125
-0.06125
-0.065625
-0.058125
-0.04125
-0.043125
-0.04
-0.039375
-0.04
-0.038125
-0.030625
-0.04
-0.045
-0.043125
-0.04
-0.04625
-0.055625
-0.04
-0.041875
-0.038125
-0.046875
-0.0625
-0.06
-0.06125
-0.029375
-0.023125
-0.038125
-0.043125
-0.046875
-0.04125
-0.04
-0.05
-0.051875
-0.045625
-0.039375
-0.041875
-0.041875
-0.038125
-0.0275
-0.015625
-0.018125
-0.028125
-0.03625
-0.02
0.004375
0.013125
-0.003125
0.009375
0.045625
0.0375
0.019375
0.000625
-0.010625
-0.03625
-0.02
-0.03
-0.03875
-0.043125
-0.021875
-0.035625
-0.053125
-0.0725
-0.0725
-0.044375
-0.03
-0.029375
-0.04375
-0.050625
-0.051875
-0.06
-0.048125
-0.068125
-0.049375
-0.043125
-0.0375
-0.044375
-0.04875
-0.055
-0.07125
-0.040625
-0.03875
-0.051875
-0.06875
-0.074375
-0.039375
0.024375
0.09625
0.15875
0.199375
0.270625
0.390625
0.4875
0.480625
0.39
0.215625
0.02
-0.12875
-0.231875
-0.25875
-0.211875
-0.155625
-0.119375
-0.10125
-0.0775
-0.04875
-0.031875
-0.028125
-0.009375
0.00625
0.01125
0.026875
0.026875
0.01875
0.010625
0.018125
0.020625
0.01875
0.02
0.02
0.018125
0.01625
0.0175
0.025
0.04875
0.060625
0.060625
0.049375
0.054375
0.061875
0.07
0.05625
0.050625
0.07
0.095625
0.118125
0.1175
0.113125
0.11
0.119375
0.133125
0.131875
0.128125
0.14625
0.1725
0.1975
0.199375
0.1925
0.19875
0.206875
0.204375
0.201875
0.198125
0.186875
0.188125
0.179375
0.15875
0.130625
0.113125
0.1
0.08
0.05625
0.016875
-0.0175
-0.03375
-0.01125
-0.07125
-0.095
-0.098125
-0.09875
-0.090625
-0.094375
-0.11
-0.111875
-0.126875
-0.10375
-0.1275
-0.111875
-0.123125
-0.120625
-0.104375
-0.108125
-0.12375
-0.12875
-0.109375
-0.08375
-0.071875
-0.08875
-0.1
-0.095625
-0.093125
-0.090625
-0.091875
-0.1
-0.099375
-0.088125
-0.08125
-0.091875
-0.09375
-0.094375
-0.083125
-0.081875
-0.086875
-0.08125
-0.06
-0.04125
-0.04375
-0.06
-0.063125
-0.059375
-0.055625
-0.060625
-0.069375
-0.079375
-0.06875
-0.06875
-0.078125
-0.07375
-0.073125
-0.073125
-0.073125
-0.078125
-0.079375
-0.085625
-0.075625
-0.063125
-0.050625
-0.078125
-0.0775
-0.068125
-0.056875
-0.050625
-0.06
-0.060625
-0.045625
-0.038125
-0.040625
-0.044375
-0.05125
-0.04
-0.0075
-0.043125
-0.034375
-0.056875
-0.0375
-0.0225
-0.015625
-0.02125
-0.02
-0.01625
0
-0.004375
-0.011875
-0.010625
-0.02
-0.01
-0.00875
-0.01375
-0.003125
0.02
0.028125
0.006875
-0.014375
-0.030625
-0.03125
-0.03875
-0.051875
-0.058125
-0.04125
-0.03125
-0.013125
-0.031875
-0.053125
-0.06375
-0.04
-0.031875
-0.036875
-0.04125
-0.053125
-0.05
-0.033125
-0.03375
-0.04
-0.041875
-0.03875
-0.02
-0.01125
-0.009375
-0.02375
-0.035625
-0.03875
-0.034375
-0.045625
-0.056875
-0.05375
-0.016875
0.039375
0.0975
0.14
0.186875
0.26125
0.40625
0.503125
0.491875
0.38
0.189375
-0.008125
-0.170625
-0.25
-0.22875
-0.17125
-0.121875
-0.09125
-0.06875
-0.055625
-0.0375
-0.02
-0.013125
0
-0.000625
0.00125
-0.008125
-0.01875
-0.015625
0.000625
0.029375
0
0.013125
0.016875
0.02375
0.01375
0.033125
0.01375
0.013125
0.02
0.036875
0.041875
0.03375
0.018125
0.013125
0.05125
0.063125
0.056875
0.053125
0.06
0.07625
0.105
0.100625
0.124375
0.106875
0.170625
0.13
0.1225
0.133125
0.154375
0.16375
0.1775
0.174375
0.173125
0.16125
0.1875
0.184375
0.176875
0.17
0.168125
0.169375
0.154375
0.131875
0.1175
0.1
0.073125
0.04
0.008125
-0.010625
-0.014375
-0.036875
-0.06
-0.08
-0.1
-0.10875
-0.11
-0.125625
-0.126875
-0.126875
-0.129375
-0.119375
-0.115625
-0.114375
-0.119375
-0.1175
-0.118125
-0.123125
-0.12875
-0.12625
-0.11125
-0.0925
-0.09875
-0.115625
-0.123125
-0.11875
-0.104375
-0.1
-0.101875
-0.130625
-0.115625
-0.09625
-0.07375
-0.080625
-0.08
-0.08625
-0.088125
-0.08
-0.08375
-0.09375
-0.094375
-0.083125
-0.075625
-0.088125
-0.09
-0.08125
-0.070625
-0.071875
-0.071875
-0.078125
-0.073125
-0.06125
-0.05
-0.049375
-0.060625
-0.05875
-0.053125
-0.061875
-0.065625
-0.06625
-0.071875
-0.07375
-0.07375
-0.0675
-0.06875
-0.071875
-0.06625
-0.0575
-0.05
-0.063125
-0.05125
-0.040625
-0.045625
-0.051875
-0.049375
-0.035625
-0.04375
-0.056875
-0.043125
-0.07125
-0.07
-0.060625
-0.068125
-0.07375
-0.074375
-0.054375
-0.05875
-0.06
-0.06875
-0.054375
-0.049375
-0.04625
-0.048125
-0.04375
-0.04
-0.040625
-0.00625
-0.00125
-0.024375
-0.04875
-0.011875
0.01
0.008125
0.02
0.01375
0.014375
-0.01125
-0.00375
-0.01875
-0.03375
-0.035625
-0.02875
-0.02875
-0.02625
-0.031875
-0.04
-0.0425
-0.053125
-0.0675
-0.06375
-0.055625
-0.031875
-0.040625
-0.05
-0.05625
-0.046875
-0.03875
-0.04
-0.06
-0.045625
-0.05875
-0.05125
-0.03625
-0.02125
-0.0175
-0.02125
-0.02
-0.030625
-0.058125
-0.03875
0.016875
0.09125
0.1575
0.2
0.24
0.3725
0.510625
0.528125
0.43375
0.248125
0.07
-0.08
-0.18875
-0.22
-0.2
-0.146875
-0.093125
-0.060625
-0.01625
-0.06
-0.04375
-0.008125
0.020625
0.008125
0.010625
0.016875
0.01875
0.031875
0.014375
0.001875
0.010625
0.040625
0.058125
0.048125
0.02
0.02
0.04875
0.06375
0.05
0.029375
0.03375
0.06875
0.08
0.066875
0.053125
0.044375
0.083125
0.086875
0.099375
0.084375
0.09625
0.12
0.14
0.14
0.136875
0.14375
0.166875
0.169375
0.190625
0.19875
0.21
0.221875
0.22875
0.22375
0.211875
0.209375
0.23625
0.224375
0.204375
0.1825
0.18
0.18125
0.199375
0.173125
0.134375
0.098125
0.07875
0.065
0.02875
-0.0025
-0.025625
-0.029375
-0.031875
-0.058125
-0.08625
-0.083125
-0.055625
-0.071875
-0.090625
-0.1175
-0.123125
-0.083125
-0.06375
-0.06875
-0.093125
-0.08625
-0.06625
-0.048125
-0.05
-0.06875
-0.07
-0.053125
-0.045
-0.05625
-0.05625
-0.053125
-0.039375
-0.023125
-0.03625
-0.043125
-0.04625
-0.03
-0.005625
-0.00125
-0.016875
-0.01
0.023125
-0.003125
-0.01125
-0.003125
-0.02125
0.004375
0.0225
0.01875
0.000625
-0.003125
0.009375
0.020625
0.0225
0.010625
0.006875
0.019375
0.02875
0.021875
0.02
0.0375
0.05
0.055625
0.021875
0.018125
0.021875
0.034375
0.04
0.020625
0.016875
0.015
0.02625
0.046875
0.028125
0.011875
0.006875
0.021875
0.04875
0.054375
0.04875
0.05375
0.074375
0.09125
0.07625
0.049375
0.061875
0.08625
0.113125
0.088125
0.060625
0.058125
0.093125
0.11
0.103125
0.083125
0.081875
0.09875
0.10125
0.07875
0.053125
0.04375
0.06
0.066875
0.06
0.04
0.018125
0.021875
0.040625
0.039375
0.021875
0.019375
0.03875
0.049375
0.049375
0.026875
0.028125
0.07875
0.06625
0.054375
0.029375
0.034375
0.051875
0.07
0.046875
0.020625
0.02875
0.021875
0.029375
0.04375
0.086875
0.153125
0.23125
0.283125
0.32125
0.42625
0.5475
0.57125
0.47375
0.2575
0.055625
-0.16
-0.308125
-0.271875
-0.255625
-0.204375
-0.201875
-0.13125
-0.09875
-0.089375
-0.09125
-0.096875
-0.075625
-0.054375
-0.06
-0.07375
-0.076875
-0.068125
-0.06125
-0.063125
-0.063125
-0.056875
-0.026875
-0.00875
-0.025625
-0.04625
-0.04375
-0.023125
-0.001875
-0.004375
-0.03125
-0.031875
-0.02
-0.005625
-0.001875
-0.009375
0.01875
0.040625
0.05875
0.051875
0.0425
0.056875
0.088125
0.099375
0.09875
0.08375
0.096875
0.115625
0.131875
0.133125
0.128125
0.1325
0.15
0.165625
0.156875
0.144375
0.1625
0.18
0.18
0.1575
0.10375
0.101875
0.10125
0.098125
0.07625
0.0425
0.013125
-0.009375
-0.02125
-0.045625
-0.074375
-0.08125
-0.080625
-0.07625
-0.065625
-0.130625
-0.155625
-0.12
-0.089375
-0.10875
-0.10875
-0.109375
-0.118125
-0.096875
-0.0975
-0.108125
-0.103125
-0.068125
-0.093125
-0.091875
-0.1
-0.09375
-0.080625
-0.064375
-0.07375
-0.08
-0.071875
-0.04625
-0.03375
-0.039375
-0.055625
-0.055625
-0.04
-0.020625
-0.030625
-0.05
-0.0475
-0.02375
-0.01625
-0.030625
-0.044375
-0.03125
-0.019375
-0.01625
-0.005625
-0.029375
-0.02
0
0.006875
0.003125
-0.004375
-0.02125
-0.001875
0.02
0.006875
-0.011875
-0.01375
0.006875
0.01125
0.004375
-0.01625
-0.010625
0.003125
0.010625
0.041875
-0.00875
-0.00875
-0.003125
0.006875
0.00625
-0.0075
-0.0025
0.018125
0.028125
0.020625
0.01
0.00875
0.02
0.02875
0.024375
0.01875
0.01625
0.024375
0.036875
0.05375
0.04625
0.048125
0.10625
0.096875
0.09125
0.066875
0.055
0.063125
0.08125
0.08125
0.0875
0.088125
0.1
0.096875
0.07625
0.056875
0.05
0.06
0.056875
0.050625
0.054375
0.039375
0.051875
0.05375
0.045625
0.02
0.024375
0.035625
0.041875
0.026875
0.010625
0.010625
0.024375
0.041875
0.039375
0.0175
0.008125
0.02
0.03625
0.0275
0.02
0.02875
0.046875
0.06
0.04625
0.014375
0.000625
0.04
0.111875
0.181875
0.22
0.24625
0.305625
0.466875
0.611875
0.563125
0.44
0.241875
-0.00125
-0.17
-0.236875
-0.188125
-0.099375
-0.024375
0.00625
0.013125
0.035
0.05375
0.08125
0.091875
0.074375
0.056875
0.075625
0.08375
0.074375
0.05625
0.063125
0.07875
0.089375
0.084375
0.094375
0.070625
0.09625
0.100625
0.104375
0.089375
0.09125
0.116875
0.14
0.12875
0.116875
0.106875
0.121875
0.14125
0.14375
0.124375
0.131875
0.14
0.1625
0.1625
0.161875
0.160625
0.18
0.198125
0.21
0.2
0.208125
0.24125
0.241875
0.255625
0.2475
0.244375
0.2625
0.278125
0.26875
0.245625
0.24
0.240625
0.244375
0.208125
0.175625
0.15125
0.130625
0.106875
0.091875
0.07
0.0575
0.04125
0.025625
0.006875
-0.043125
-0.044375
-0.04875
-0.04
-0.04
-0.058125
-0.06625
-0.06
-0.043125
-0.049375
-0.06
-0.061875
-0.040625
-0.026875
-0.029375
-0.043125
-0.0575
-0.061875
-0.05
-0.039375
-0.041875
-0.055625
-0.053125
-0.04625
-0.045625
-0.059375
-0.05125
-0.038125
-0.030625
-0.033125
-0.043125
-0.04
-0.01
-0.009375
-0.001875
-0.019375
-0.033125
-0.028125
-0.019375
-0.023125
-0.025
-0.02375
-0.02875
-0.015625
-0.009375
-0.05
-0.026875
-0.02875
-0.02
-0.016875
-0.02
-0.03625
-0.026875
0.004375
0.004375
-0.00375
-0.011875
-0.009375
-0.01
-0.003125
-0.02375
-0.0275
-0.020625
-0.006875
0.005625
-0.01
-0.023125
-0.025625
-0.01125
-0.00625
-0.01125
-0.023125
-0.040625
-0.003125
0
-0.021875
-0.019375
-0.008125
0.01625
0.01625
-0.01
-0.019375
-0.010625
0
-0.01125
-0.004375
-0.02125
-0.005
0.008125
0.000625
0
0.004375
0.03875
0.06
0.061875
0.038125
0.013125
0.023125
0.053125
0.060625
0.045625
0.03625
0.04875
0.066875
0.064375
0.039375
0.02
0.010625
0.01375
0.00625
-0.00875
-0.0025
0
0.06625
-0.000625
-0.000625
-0.021875
-0.01125
0
-0.02875
-0.023125
-0.02625
0.006875
0.000625
-0.003125
-0.01875
-0.0225
-0.01625
0.001875
0.003125
-0.0175
-0.025625
-0.02
-0.00875
0.01625
0.01375
-0.003125
-0.00875
0.02625
0.081875
0.13625
0.188125
0.22125
0.27875
0.414375
0.52
0.506875
0.389375
0.228125
0.035625
-0.16
-0.24
-0.211875
-0.153125
-0.1075
-0.07875
-0.05
-0.020625
0.016875
0.04
0.043125
0.046875
0.059375
0.07
0.065625
0.0575
0.046875
0.050625
0.065625
0.07
0.054375
0.044375
0.058125
0.06625
0.086875
0.088125
0.075625
0.07
0.086875
0.081875
0.078125
0.08375
0.1
0.111875
0.11875
0.11625
0.1
0.11375
0.133125
0.13875
0.134375
0.14125
0.16875
0.195625
0.199375
0.193125
0.18125
0.184375
0.2025
0.206875
0.22375
0.200625
0.223125
0.240625
0.251875
0.23125
0.21
0.2075
0.210625
0.188125
0.17625
0.170625
0.150625
0.1325
0.099375
0.056875
0.009375
0.00375
0.00125
-0.01125
-0.040625
-0.041875
-0.073125
-0.08
-0.09125
-0.103125
-0.08
-0.098125
-0.09875
-0.104375
-0.12
-0.134375
-0.11125
-0.0975
-0.09125
-0.10625
-0.11125
-0.099375
-0.1
-0.075625
-0.081875
-0.09125
-0.090625
-0.07875
-0.08
-0.0975
-0.11625
-0.095625
-0.074375
-0.061875
-0.063125
-0.083125
-0.079375
-0.056875
-0.031875
-0.05
-0.086875
-0.07125
-0.04125
-0.036875
-0.043125
-0.056875
-0.059375
-0.049375
-0.05125
-0.06375
-0.069375
-0.0625
-0.06
-0.06
-0.04625
-0.07125
-0.07
-0.06
-0.055625
-0.06125
-0.070625
-0.069375
-0.0475
-0.02
-0.038125
-0.02125
-0.04125
-0.030625
-0.015625
-0.04375
-0.050625
-0.043125
-0.0325
-0.04625
-0.039375
-0.05
-0.039375
-0.02875
0.000625
-0.03375
-0.0375
-0.02625
-0.011875
-0.01
-0.0225
-0.045625
-0.043125
-0.02
-0.011875
-0.031875
-0.040625
-0.033125
-0.015625
0.00125
0.00375
0
0
0.0225
0.029375
0.01375
0.020625
0.03875
0.05875
0.06125
0.053125
0.038125
0.02375
0.029375
0.028125
0.0075
-0.009375
-0.014375
-0.005625
0.000625
-0.015625
-0.026875
-0.03125
-0.02375
-0.028125
-0.04875
-0.06
-0.04
-0.02
-0.014375
-0.02375
-0.0475
-0.05
-0.030625
-0.023125
-0.03375
-0.049375
-0.041875
-0.02
-0.02
-0.03125
-0.0425
-0.048125
-0.0275
-0.029375
-0.063125
-0.038125
0.025625
0.10625
0.164375
0.19875
0.23125
0.36875
0.495625
0.514375
0.418125
0.236875
0.04
-0.116875
-0.221875
-0.248125
-0.206875
-0.143125
-0.090625
-0.060625
-0.05
-0.0275
-0.016875
0.014375
0.014375
-0.000625
-0.001875
0.008125
0.01625
0.028125
0.023125
0.02375
0.02
0.035625
0.045625
0.04
0.035625
0.021875
0.040625
0.070625
0.06875
0.06
0.05875
0.063125
0.08
0.06
0.051875
0.06
0.0925
0.111875
0.10125
0.09125
0.09875
0.12
0.13375
0.12875
0.129375
0.153125
0.19125
0.20625
0.204375
0.2
0.20375
0.215625
0.221875
0.203125
0.189375
0.196875
0.22
0.231875
0.20875
0.14125
0.1625
0.163125
0.156875
0.1325
0.1025
0.08375
0.069375
0.05125
0.026875
-0.013125
-0.011875
-0.04125
-0.06
-0.08375
-0.10625
-0.108125
-0.105625
-0.106875
-0.1125
-0.12625
-0.13
-0.11625
-0.101875
-0.109375
-0.120625
-0.10625
-0.093125
-0.089375
-0.100625
-0.104375
-0.09875
-0.08625
-0.07625
-0.081875
-0.091875
-0.096875
-0.08
-0.06875
-0.07625
-0.096875
-0.086875
-0.061875
-0.06125
-0.073125
-0.074375
-0.06
-0.04
-0.04
-0.05
-0.063125
-0.05375
-0.0425
-0.038125
-0.043125
-0.050625
-0.05125
-0.050625
-0.03375
-0.04
-0.04625
-0.049375
-0.04
-0.0375
-0.04
-0.031875
-0.018125
-0.00125
-0.003125
-0.023125
-0.04
-0.04
-0.023125
-0.01375
-0.025625
-0.040625
-0.040625
0.006875
-0.013125
-0.029375
-0.055625
-0.04625
-0.035625
-0.023125
-0.023125
-0.033125
-0.023125
-0.00125
0.009375
-0.00125
-0.01
-0.018125
-0.006875
0
-0.003125
-0.01125
-0.005625
0.004375
0.015625
0.00625
-0.000625
0.013125
0.04125
0.058125
0.071875
0.048125
0.014375
0.0125
0.02
0.006875
-0.001875
0
0.005625
0.00875
-0.0075
-0.03875
-0.03875
-0.021875
-0.019375
-0.02375
-0.036875
-0.04
-0.02875
-0.0225
-0.028125
-0.033125
-0.058125
-0.023125
0
0.004375
-0.003125
-0.008125
0
0.00375
-0.008125
-0.00875
-0.01
-0.01
-0.02
-0.00625
0.03875
0.099375
0.166875
0.219375
0.283125
0.418125
0.53625
0.55
0.48
0.26875
0.078125
-0.078125
-0.165625
-0.176875
-0.150625
-0.12
-0.08625
-0.05625
-0.03625
-0.00125
-0.004375
0.01125
0.01875
0.043125
0.04
0.029375
0.040625
0.060625
0.073125
0.063125
0.056875
0.050625
0.07
0.08
0.068125
0.04
0.05375
0.07
0.071875
0.081875
0.061875
0.04125
0.06875
0.1
0.106875
0.11
0.098125
0.12125
0.140625
0.129375
0.1175
0.11125
0.13375
0.151875
0.161875
0.16
0.16
0.17125
0.18
0.195
0.1925
0.19
0.2
0.20625
0.21375
0.194375
0.229375
0.225625
0.218125
0.198125
0.18
0.161875
0.143125
0.1325
0.11125
0.0625
0.019375
0.005625
-0.00375
-0.01875
-0.039375
-0.0575
-0.06125
-0.06875
-0.08
-0.089375
-0.09
-0.081875
-0.070625
-0.0625
-0.08
-0.089375
-0.091875
-0.08625
-0.10125
-0.1025
-0.104375
-0.10125
-0.1
-0.101875
-0.11875
-0.10875
-0.096875
-0.094375
-0.1
-0.11625
-0.100625
-0.070625
-0.0575
-0.06
-0.063125
-0.083125
-0.07125
-0.06
-0.056875
-0.060625
-0.061875
-0.065625
-0.043125
-0.03125
-0.04
-0.05
-0.02125
-0.0575
-0.040625
-0.038125
-0.041875
-0.02
-0.009375
-0.009375
-0.02875
-0.039375
-0.028125
-0.02125
-0.02
-0.03
-0.02875
-0.028125
-0.02
-0.029375
-0.044375
-0.04
-0.036875
-0.029375
-0.033125
-0.04
-0.01375
-0.01125
-0.008125
-0.014375
-0.0275
-0.029375
-0.01625
-0.003125
-0.003125
-0.010625
-0.01375
-0.0125
-0.004375
-0.000625
-0.01
-0.010625
0
0.02125
0.03375
0.02375
0.043125
0.04625
0.046875
0.048125
0.046875
0.01625
0.056875
0.06375
0.0725
0.055625
0.034375
0.033125
0.038125
0.019375
-0.00125
-0.01125
-0.001875
0.026875
0.020625
-0.000625
0.010625
-0.011875
-0.01125
-0.013125
-0.013125
0.000625
-0.006875
-0.003125
-0.01625
-0.010625
-0.018125
-0.010625
0
0
-0.01
-0.02
-0.016875
-0.01
0
-0.000625
-0.00625
-0.01125
-0.018125
0
0.046875
0.106875
0.179375
0.24
0.276875
0.38
0.511875
0.571875
0.46875
0.269375
0.04
-0.171875
-0.23875
-0.24
-0.16625
-0.11625
-0.050625
-0.02875
-0.01
0.001875
0.013125
0.02
0.033125
0.045625
0.040625
0.02125
0.028125
0.03625
0.048125
0.053125
0.04125
0.026875
0.02
0.05125
0.05375
0.07125
0.06
0.06
0.080625
0.064375
0.0625
0.06
0.06125
0.076875
0.08
0.075625
0.0775
0.089375
0.09625
0.096875
0.0925
0.09875
0.12375
0.14
0.14625
0.136875
0.158125
0.170625
0.175625
0.181875
0.18125
0.18
0.210625
0.23375
0.238125
0.2125
0.21125
0.21875
0.219375
0.213125
0.185625
0.17
0.143125
0.13125
0.109375
0.08
0.058125
0.058125
0.04125
0.009375
-0.01125
-0.020625
-0.04
-0.031875
-0.03875
-0.059375
-0.056875
-0.063125
-0.06
-0.06125
-0.09
-0.075625
-0.07
-0.068125
-0.07125
-0.0675
-0.071875
-0.053125
-0.05
-0.0425
-0.059375
-0.068125
-0.0725
-0.050625
-0.04375
-0.055625
-0.066875
-0.053125
-0.03125
-0.03875
-0.04875
-0.079375
-0.05125
-0.039375
-0.035625
-0.04
-0.0475
-0.03375
-0.019375
-0.016875
-0.036875
-0.0375
-0.028125
-0.01625
-0.011875
-0.03375
-0.035625
-0.026875
-0.019375
-0.019375
-0.03875
-0.04875
-0.041875
-0.02375
-0.029375
-0.03625
-0.04
-0.016875
-0.013125
-0.010625
-0.02
-0.025625
-0.02
-0.016875
-0.014375
-0.01625
-0.02
-0.021875
-0.01125
-0.016875
-0.028125
-0.04
-0.030625
-0.0225
-0.0225
0
-0.023125
-0.028125
-0.014375
0.000625
0.005625
0.00625
-0.004375
0.00125
0.004375
-0.001875
-0.011875
-0.009375
0.006875
0.019375
0.014375
0.013125
0.029375
0.045
0.04875
0.036875
0.02
0.04
0.070625
0.0725
0.06625
0.06
0.0575
0.07625
0.04125
0.01
-0.008125
0.00625
0.021875
0.035
0.015625
0.008125
-0.001875
-0.0075
-0.023125
-0.02625
-0.004375
0.004375
0.014375
0.00375
-0.00875
-0.015625
-0.015625
-0.005625
0.000625
-0.005625
-0.008125
0.00375
0.02
0.00625
-0.02
-0.0125
0.00625
0.00875
-0.00375
-0.025625
0.004375
0.09
0.17
0.22875
0.239375
0.271875
0.405625
0.540625
0.553125
0.43875
0.228125
0.00625
-0.151875
-0.210625
-0.188125
-0.12875
-0.064375
-0.02875
-0.00125
0
0.011875
0.04
0.056875
0.079375
0.060625
0.068125
0.06
0.05
0.0875
0.07125
0.05125
0.064375
0.088125
0.09875
0.088125
0.07125
0.085625
0.100625
0.0925
0.071875
0.069375
0.065625
0.100625
0.128125
0.14125
0.12
0.10375
0.1275
0.124375
0.119375
0.10875
0.133125
0.156875
0.17125
0.158125
0.14375
0.15375
0.16
0.183125
0.20125
0.2025
0.21125
0.22125
0.24
0.22
0.22
0.22
0.2275
0.21375
0.19625
0.18
0.169375
0.14375
0.16125
0.134375
0.07
0.04625
0.04
0.015625
-0.023125
-0.046875
-0.066875
-0.076875
-0.07125
-0.08125
-0.09625
-0.100625
-0.10125
-0.101875
-0.12125
-0.123125
-0.121875
-0.14375
-0.09625
-0.126875
-0.126875
-0.136875
-0.1225
-0.109375
-0.10875
-0.103125
-0.09125
-0.095
-0.09
-0.106875
-0.115625
-0.104375
-0.0875
-0.08
-0.0875
-0.096875
-0.093125
-0.08625
-0.076875
-0.085625
-0.095
-0.08625
-0.074375
-0.053125
-0.04625
-0.05625
-0.055625
-0.045625
-0.044375
-0.06375
-0.073125
-0.066875
-0.045625
-0.050625
-0.06
-0.073125
-0.0725
-0.06
-0.053125
-0.06
-0.060625
-0.060625
-0.04875
-0.049375
-0.0575
-0.068125
-0.06
-0.05625
-0.0425
-0.0425
-0.070625
-0.06
-0.049375
-0.04875
-0.046875
-0.055625
-0.05625
-0.038125
-0.034375
-0.040625
-0.05
-0.046875
-0.038125
-0.033125
-0.04375
-0.061875
-0.058125
-0.05
-0.03375
-0.034375
-0.05125
-0.049375
-0.03125
-0.020625
-0.035625
-0.04
-0.031875
-0.01375
-0.00375
-0.005625
-0.010625
-0.009375
-0.004375
-0.00875
-0.016875
-0.023125
-0.01375
0.02375
0.06
0.04
0.04
0.040625
0.04375
0.04
0.020625
-0.00125
-0.010625
0
0.00375
-0.008125
-0.029375
-0.039375
-0.025625
-0.03125
-0.04375
-0.045625
-0.039375
-0.023125
-0.02
-0.020625
-0.02875
-0.026875
-0.019375
-0.01375
-0.02125
-0.03375
-0.034375
-0.016875
-0.00625
-0.018125
-0.031875
-0.03625
-0.01125
-0.01875
-0.04375
-0.05625
-0.00875
0.058125
0.131875
0.17625
0.194375
0.26375
0.409375
0.5175
0.494375
0.349375
0.166875
-0.019375
-0.164375
-0.24
-0.225625
-0.18
-0.13125
-0.080625
-0.070625
-0.06625
-0.03375
0.006875
0.028125
0.02
0.001875
0.000625
0.0175
0.020625
0.015625
0.01375
0.020625
0.040625
0.040625
0.034375
0.020625
0.029375
0.046875
0.05
0.04625
0.044375
0.041875
0.06125
0.08
0.088125
0.080625
0.090625
0.10625
0.12
0.11
0.095625
0.09875
0.11875
0.12875
0.130625
0.134375
0.143125
0.15875
0.18
0.184375
0.186875
0.198125
0.209375
0.22375
0.224375
0.216875
0.216875
0.22
0.215625
0.200625
0.18875
0.180625
0.186875
0.181875
0.150625
0.11
0.093125
0.086875
0.063125
0.0325
0.010625
0.00125
-0.00625
-0.016875
-0.03875
-0.07
-0.084375
-0.076875
-0.075625
-0.08375
-0.101875
-0.110625
-0.0975
-0.089375
-0.101875
-0.108125
-0.0975
-0.078125
-0.068125
-0.060625
-0.07
-0.078125
-0.07
-0.059375
-0.06875
-0.073125
-0.071875
-0.059375
-0.049375
-0.05875
-0.0725
-0.075625
-0.059375
-0.04875
-0.043125
-0.059375
-0.0675
-0.055625
-0.036875
-0.038125
-0.039375
-0.026875
-0.008125
0.000625
-0.01625
-0.035625
-0.033125
-0.028125
-0.025
-0.03
-0.03125
-0.029375
-0.025625
-0.02125
-0.02
-0.035625
-0.028125
-0.02
-0.0125
0
-0.01125
-0.01
-0.01
-0.000625
0
-0.011875
-0.023125
-0.02
-0.01375
-0.016875
-0.02625
-0.02875
-0.018125
-0.010625
-0.00875
-0.015625
-0.013125
-0.006875
-0.00125
-0.006875
-0.01
-0.008125
-0.001875
-0.004375
-0.005625
-0.01
-0.013125
0.001875
0.021875
0.029375
0.0125
0.010625
0.03375
0.03875
0.028125
0.0125
0.00875
0.040625
0.06
0.055
0.0425
0.034375
0.03625
0.038125
0.0225
-0.003125
-0.02
-0.0075
0.013125
0.01375
-0.003125
-0.018125
-0.016875
-0.01
-0.011875
-0.026875
-0.04
-0.029375
-0.019375
-0.01625
-0.013125
-0.011875
0
0.00125
-0.0125
-0.019375
-0.024375
-0.015625
-0.00625
-0.006875
-0.008125
-0.0125
-0.00875
-0.013125
-0.033125
-0.031875
0.016875
0.09125
0.16
0.191875
0.21375
0.29875
0.44
0.52875
0.48625
0.32
0.088125
-0.120625
-0.2225
-0.234375
-0.191875
-0.133125
-0.08
-0.045625
-0.019375
-0.000625
0.006875
0.02
0.029375
0.03625
0.024375
0.021875
0.024375
0.038125
0.039375
0.02125
0.0225
0.049375
0.074375
0.079375
0.061875
0.05
0.05125
0.063125
0.063125
0.06
0.060625
0.0625
0.07375
0.076875
0.07625
0.089375
0.098125
0.1
0.09875
0.099375
0.105625
0.115625
0.133125
0.143125
0.136875
0.14
0.148125
0.1675
0.17625
0.1675
0.16875
0.19
0.214375
0.21875
0.210625
0.216875
0.228125
0.234375
0.22
0.196875
0.189375
0.18
0.168125
0.14
0.1025
0.079375
0.065625
0.058125
0.0375
0.001875
-0.02125
-0.041875
-0.045625
-0.058125
-0.078125
-0.09375
-0.0925
-0.08625
-0.088125
-0.081875
-0.086875
-0.08125
-0.084375
-0.07125
-0.08
-0.08375
-0.080625
-0.064375
-0.069375
-0.09375
-0.09
-0.0675
-0.053125
-0.055625
-0.06625
-0.06625
-0.056875
-0.046875
-0.04375
-0.056875
-0.06625
-0.06
-0.0475
-0.04875
-0.0575
-0.063125
-0.051875
-0.04
-0.04375
-0.05125
-0.0575
-0.04
-0.033125
-0.039375
-0.049375
-0.04
-0.02375
-0.009375
-0.01125
-0.026875
-0.03
-0.025625
-0.015625
-0.013125
-0.02
-0.023125
-0.004375
-0.02125
-0.023125
-0.026875
-0.03375
-0.034375
-0.020625
-0.01625
-0.01625
-0.028125
-0.026875
-0.025625
-0.01375
-0.018125
-0.020625
-0.01875
0.000625
-0.003125
-0.005625
-0.018125
-0.015625
0.00875
0.010625
-0.001875
-0.010625
-0.000625
0.00375
0.0125
0.025625
0.016875
0.01375
0.014375
0.009375
0.006875
0.02
0.04
0.053125
0.0525
0.02625
0.02125
0.02125
0.041875
0.051875
0.056875
0.054375
0.05875
0.063125
0.068125
0.059375
0.051875
0.0525
0.075
0.041875
0.014375
-0.00125
0.019375
0.020625
0
0.018125
-0.02125
-0.028125
-0.018125
-0.013125
-0.02625
-0.015625
-0.018125
-0.0075
-0.01875
-0.005625
-0.0125
0
0.01625
0.01125
0.00625
-0.00375
0.00875
0.005625
0.02625
-0.0025
-0.0125
-0.023125
0.009375
0.068125
0.113125
0.178125
0.200625
0.271875
0.380625
0.501875
0.5325
0.471875
0.310625
0.08875
-0.13625
-0.239375
-0.21875
-0.148125
-0.090625
-0.046875
-0.025625
-0.013125
0.02125
0.02125
0.036875
0.021875
0.0275
0.059375
0.08
0.08
0.078125
0.073125
0.074375
0.07125
0.07
0.07875
0.088125
0.1
0.09625
0.08625
0.086875
0.090625
0.09625
0.09375
0.079375
0.086875
0.104375
0.12125
0.156875
0.108125
0.109375
0.13125
0.160625
0.1625
0.16125
0.15625
0.176875
0.19375
0.198125
0.189375
0.185625
0.19375
0.22
0.230625
0.22
0.219375
0.20125
0.253125
0.26875
0.26
0.25125
0.24875
0.254375
0.239375
0.2
0.161875
0.149375
0.14
0.120625
0.08375
0.04
0.016875
0.018125
0.010625
-0.023125
-0.043125
-0.084375
-0.071875
-0.07375
-0.083125
-0.088125
-0.086875
-0.08
-0.068125
-0.07875
-0.086875
-0.1
-0.05
-0.08375
-0.09
-0.093125
-0.085625
-0.08
-0.081875
-0.09
-0.09
-0.08125
-0.076875
-0.071875
-0.08
-0.068125
-0.060625
-0.040625
-0.044375
-0.06
-0.06
-0.061875
-0.044375
-0.045625
-0.05875
-0.06625
-0.055625
-0.04
-0.039375
-0.050625
-0.054375
-0.049375
-0.03375
-0.035625
-0.06
-0.050625
-0.028125
-0.018125
-0.001875
-0.014375
-0.02
-0.024375
-0.018125
-0.02
-0.02
-0.026875
-0.016875
-0.0175
-0.023125
-0.02875
-0.029375
-0.020625
-0.00625
-0.010625
-0.018125
-0.029375
-0.036875
-0.009375
0.013125
0.001875
-0.013125
-0.023125
-0.009375
-0.025625
-0.013125
-0.021875
-0.018125
-0.005625
-0.003125
-0.01625
-0.016875
-0.013125
-0.01
0.001875
0.000625
0.015625
0.039375
0.055625
0.058125
0.043125
0.059375
0.00625
0.041875
0.04125
0.04875
0.05875
0.02875
0.06
0.079375
0.081875
0.026875
0.02
0.024375
0.00875
0.01875
0.00375
0.006875
0.0225
0.024375
0
-0.016875
-0.015625
0.00125
-0.00625
-0.018125
-0.023125
-0.02
-0.038125
-0.02
-0.025625
-0.031875
-0.011875
0.00625
0.008125
0
0.000625
-0.00375
0.004375
0.004375
-0.008125
-0.01875
-0.02125
0.02
0.079375
0.13875
0.16875
0.206875
0.290625
0.41375
0.508125
0.49625
0.4
0.228125
0.051875
-0.088125
-0.18
-0.185
-0.138125
-0.09125
-0.0775
-0.06625
-0.055625
-0.015625
0.01125
0.019375
0.0125
0.020625
0.02375
0.03375
0.02375
0.00875
0.02875
0.04375
0.04625
0.04125
0.051875
0.059375
0.0625
0.058125
0.045625
0.039375
0.04375
0.06375
0.06
0.061875
0.054375
0.06
0.079375
0.080625
0.07375
0.063125
0.078125
0.110625
0.141875
0.13
0.116875
0.136875
0.161875
0.17125
0.1725
0.16
0.176875
0.2
0.215625
0.204375
0.194375
0.200625
0.21375
0.219375
0.229375
0.209375
0.199375
0.179375
0.19125
0.171875
0.158125
0.146875
0.13875
0.116875
0.075625
0.039375
0.014375
0.001875
-0.03
-0.04375
-0.06
-0.07
-0.0775
-0.071875
-0.08
-0.09125
-0.088125
-0.096875
-0.069375
-0.09
-0.085625
-0.07375
-0.066875
-0.07125
-0.08125
-0.086875
-0.089375
-0.05875
-0.06
-0.070625
-0.08
-0.078125
-0.06625
-0.0625
-0.0775
-0.06625
-0.06125
-0.050625
-0.054375
-0.06
-0.06
-0.053125
-0.01375
-0.006875
-0.016875
-0.038125
-0.04
-0.03125
-0.018125
-0.005625
-0.010625
-0.021875
-0.02
-0.003125
-0.01125
-0.019375
-0.013125
0
0.004375
0.00375
0.000625
0.009375
0.013125
0.014375
0.004375
-0.00875
-0.013125
-0.011875
0
0.00625
-0.023125
0.00125
0.010625
0.029375
0.006875
-0.00125
-0.003125
0.015625
0.020625
0.026875
0.034375
0.040625
0.046875
0.054375
0.048125
0.03375
0.02
0.04
0.05375
0.026875
0.051875
0.06
0.081875
0.071875
0.058125
0.038125
0.038125
0.029375
0.04
0.039375
0.03625
0.023125
0.02
0.02125
0.001875
-0.01625
-0.013125
-0.00625
0.003125
-0.0025
-0.0175
-0.034375
-0.021875
-0.01125
-0.015625
-0.02125
-0.019375
-0.01
-0.005
-0.023125
-0.018125
0.000625
0.013125
0.018125
0.016875
-0.02
-0.040625
-0.001875
0.049375
0.1
0.141875
0.191875
0.27125
0.403125
0.503125
0.5
0.40875
0.236875
0.076875
-0.08
-0.191875
-0.218125
-0.18
-0.13
-0.099375
-0.0775
-0.056875
-0.0425
-0.010625
0
-0.001875
0
0.020625
0.0275
0.019375
0.00375
0
0.025
0.039375
0.02375
0.025625
0.034375
0.041875
0.04625
0.02625
0.0175
0.02625
0.04125
0.056875
0.044375
0.04375
0.039375
0.05
0.06875
0.08375
0.07
0.06
0.07875
0.093125
0.1
0.1025
0.110625
0.13125
0.14625
0.140625
0.14
0.14
0.15875
0.16875
0.15625
0.143125
0.15
0.163125
0.17
0.14
0.15
0.118125
0.14
0.131875
0.113125
0.093125
0.08
0.07125
0.04
0.006875
-0.0175
-0.04
-0.051875
-0.065
-0.085
-0.10875
-0.13375
-0.12875
-0.119375
-0.12875
-0.130625
-0.145625
-0.140625
-0.12875
-0.14
-0.13625
-0.136875
-0.12
-0.111875
-0.120625
-0.133125
-0.1325
-0.12
-0.095625
-0.12
-0.135625
-0.130625
-0.1225
-0.13
-0.128125
-0.123125
-0.119375
-0.109375
-0.1
-0.10125
-0.109375
-0.104375
-0.085625
-0.076875
-0.08
-0.093125
-0.1
-0.08125
-0.070625
-0.09625
-0.090625
-0.109375
-0.085625
-0.080625
-0.08
-0.089375
-0.08875
-0.083125
-0.08
-0.08
-0.09
-0.091875
-0.08
-0.066875
-0.06625
-0.073125
-0.079375
-0.08
-0.070625
-0.0775
-0.061875
-0.085625
-0.08
-0.08125
-0.1
-0.1
-0.1
-0.09
-0.07
-0.07125
-0.09
-0.086875
-0.07125
-0.056875
-0.07375
-0.075625
-0.07875
-0.070625
-0.05375
-0.053125
-0.059375
-0.063125
-0.070625
-0.039375
-0.06
-0.06875
-0.041875
-0.02
-0.01125
-0.018125
-0.05
-0.061875
-0.049375
-0.030625
-0.03
-0.041875
-0.056875
-0.0325
-0.03
-0.04
-0.064375
-0.070625
-0.06625
-0.055625
-0.053125
-0.0725
-0.0825
-0.061875
-0.048125
-0.06
-0.036875
-0.061875
-0.04
-0.021875
-0.005625
-0.023125
-0.01625
-0.011875
-0.021875
-0.02
-0.028125
-0.0525
-0.05875
-0.003125
0.071875
0.113125
0.158125
0.20875
0.339375
0.48
0.535625
0.480625
0.333125
0.13375
-0.051875
-0.189375
-0.22
-0.194375
-0.140625
-0.1025
-0.090625
-0.1
-0.040625
-0.010625
-0.003125
-0.005625
-0.003125
0.008125
0.0375
0.04625
0.035625
0.02125
0.025625
0.026875
0.04125
0.02375
0.02
0.025625
0.045625
0.034375
0.02125
0.02375
0.038125
0.044375
0.048125
0.041875
0.044375
0.0625
0.07625
0.066875
0.058125
0.073125
0.10125
0.12
0.113125
0.105625
0.1075
0.116875
0.12875
0.134375
0.140625
0.148125
0.153125
0.163125
0.17875
0.173125
0.174375
0.158125
0.210625
0.219375
0.231875
0.186875
0.175625
0.18625
0.16
0.121875
0.10625
0.09875
0.074375
0.048125
0.014375
-0.01125
-0.03
-0.044375
-0.06125
-0.091875
-0.108125
-0.114375
-0.105625
-0.103125
-0.11
-0.1
-0.09375
-0.071875
-0.076875
-0.1
-0.080625
-0.08
-0.076875
-0.084375
-0.080625
-0.07875
-0.073125
-0.06875
-0.075625
-0.071875
-0.066875
-0.055625
-0.045625
-0.046875
-0.05375
-0.06625
-0.045625
-0.02
-0.019375
-0.030625
-0.034375
-0.029375
-0.013125
-0.013125
-0.009375
-0.033125
-0.02
0.019375
-0.015625
-0.025625
-0.031875
-0.02
-0.005625
0
-0.003125
-0.00625
0
0.001875
-0.00375
-0.008125
-0.013125
-0.008125
0.00125
-0.00375
-0.020625
-0.02
-0.019375
-0.01
-0.00625
-0.009375
-0.013125
-0.000625
0.019375
0.02
0.021875
0.005625
0.011875
0.008125
0.00375
-0.006875
-0.01875
-0.00875
0.00125
0
-0.009375
-0.01125
-0.01375
-0.0025
0.003125
0.001875
0.001875
0.004375
0.034375
0.03875
0.01875
0.019375
0.044375
0.053125
0.045625
0.050625
0.05625
0.08
0.051875
0.050625
0.03375
0.020625
0.02
0.02
0.001875
-0.01
-0.028125
0
0.009375
0
-0.024375
-0.033125
-0.01125
0.001875
0.000625
-0.01375
-0.0225
-0.02
-0.01375
-0.015625
-0.01125
-0.028125
-0.01375
-0.01
-0.015625
-0.0125
-0.015625
-0.010625
0.005625
-0.000625
-0.02
-0.02
0.01625
0.078125
0.134375
0.180625
0.200625
0.24125
0.373125
0.51375
0.55
0.44
0.255625
0.05
-0.143125
-0.223125
-0.24
-0.191875
-0.10375
-0.058125
-0.04
-0.025625
0.003125
0.04625
0.054375
0.045625
0.041875
0.04375
0.058125
0.06125
0.050625
0.046875
0.053125
0.06875
0.061875
0.06125
0.06
0.049375
0.08
0.09375
0.0825
0.078125
0.07375
0.104375
0.11
0.09375
0.08
0.090625
0.11
0.12
0.115
0.11375
0.125625
0.141875
0.151875
0.141875
0.135625
0.159375
0.180625
0.199375
0.2
0.204375
0.216875
0.23
0.240625
0.241875
0.22375
0.213125
0.275625
0.23125
0.23375
0.213125
0.2
0.200625
0.194375
0.163125
0.12875
0.120625
0.124375
0.103125
0.071875
0.015625
0.006875
-0.004375
-0.011875
-0.031875
-0.054375
-0.05625
-0.06
-0.055625
-0.065625
-0.083125
-0.09
-0.08
-0.065625
-0.069375
-0.08
-0.079375
-0.07375
-0.05125
-0.063125
-0.071875
-0.063125
-0.04625
-0.04625
-0.06125
-0.069375
-0.060625
-0.048125
-0.046875
-0.055625
-0.06875
-0.07625
-0.06
-0.049375
-0.059375
-0.05875
-0.059375
-0.04375
-0.045625
-0.048125
-0.045625
-0.038125
-0.018125
-0.019375
-0.031875
-0.04
-0.04125
-0.029375
-0.034375
-0.04
-0.04875
-0.040625
-0.0425
-0.029375
-0.04
-0.051875
-0.0325
-0.013125
-0.02
-0.028125
-0.040625
-0.04375
-0.034375
-0.038125
-0.04125
-0.055625
-0.049375
-0.028125
-0.035625
-0.041875
-0.05125
-0.05
-0.046875
-0.046875
-0.019375
-0.065625
-0.06625
-0.0525
-0.033125
-0.039375
-0.01
-0.036875
-0.01875
-0.03375
-0.089375
-0.0475
-0.034375
-0.0125
0
-0.023125
-0.031875
-0.035625
-0.023125
-0.006875
0.00625
0.009375
0.01625
0.025625
0.029375
0.018125
-0.005625
-0.019375
-0.02125
-0.018125
-0.03125
-0.041875
-0.05125
-0.05625
-0.059375
-0.07
-0.08
-0.085625
-0.06125
-0.040625
-0.055625
-0.068125
-0.060625
-0.048125
-0.050625
-0.064375
-0.065625
-0.03875
-0.01625
-0.009375
-0.020625
-0.04625
-0.039375
-0.03125
-0.02
-0.048125
-0.0675
-0.049375
-0.005625
0.099375
0.15
0.183125
0.24875
0.3975
0.5
0.500625
0.384375
0.2
0.023125
-0.123125
-0.21375
-0.229375
-0.184375
-0.136875
-0.091875
-0.075625
-0.063125
-0.043125
-0.0175
0.0075
0.005625
0
0.006875
0.023125
0.060625
0.03375
0.03375
0.025625
0.05125
0.05
0.053125
0.039375
0.040625
0.051875
0.063125
0.0575
0.056875
0.045625
0.058125
0.06375
0.079375
0.05875
0.064375
0.069375
0.084375
0.08
0.0975
0.1075
0.126875
0.12875
0.1325
0.14
0.119375
0.154375
0.166875
0.16875
0.159375
0.1725
0.191875
0.2
0.19625
0.189375
0.189375
0.204375
0.218125
0.2
0.18625
0.179375
0.18
0.173125
0.15125
0.126875
0.09375
0.071875
0.06
0.02375
0.009375
-0.03
-0.028125
-0.04
-0.064375
-0.093125
-0.1125
-0.070625
-0.06
-0.068125
-0.09
-0.093125
-0.08375
-0.076875
-0.085625
-0.101875
-0.1
-0.090625
-0.08875
-0.1
-0.12125
-0.130625
-0.08625
-0.070625
-0.075625
-0.093125
-0.0825
-0.061875
-0.065625
-0.03375
-0.071875
-0.064375
-0.06
-0.04625
-0.050625
-0.069375
-0.073125
-0.05125
-0.04
-0.04125
-0.05875
-0.065625
-0.05375
-0.044375
-0.043125
-0.05375
-0.04375
-0.03125
-0.011875
-0.03375
-0.03375
-0.031875
-0.04125
-0.036875
-0.026875
-0.04125
-0.035625
-0.026875
-0.020625
-0.02625
-0.039375
-0.038125
-0.030625
-0.019375
-0.021875
-0.04
-0.036875
-0.025625
0.000625
0.0075
0
-0.003125
-0.013125
0
0.01125
-0.01
-0.000625
0.008125
0.02
0.02125
0.015625
0.003125
0.003125
0.034375
0.04
0.02625
0.025625
0.051875
0.083125
0.09875
0.081875
0.06
0.060625
0.05875
0.035625
0.016875
0.0025
0.006875
0.014375
0.048125
-0.008125
-0.0125
-0.018125
0.010625
-0.023125
-0.030625
-0.030625
-0.02375
-0.020625
-0.023125
-0.026875
-0.023125
-0.006875
-0.006875
-0.00875
-0.01875
-0.02
-0.00125
0.005
-0.001875
-0.016875
-0.024375
-0.011875
-0.025625
-0.016875
0.019375
0.08
0.165625
0.2525
0.260625
0.365625
0.490625
0.578125
0.475625
0.34
0.12375
-0.05625
-0.161875
-0.191875
-0.186875
-0.1425
-0.106875
-0.07
-0.045625
-0.031875
-0.02375
-0.01375
0.005625
0.049375
0.046875
0.034375
0.025625
0.04125
0.04125
0.036875
0.020625
0.023125
0.04
0.048125
0.043125
0.02125
0.033125
0.028125
0.04375
0.038125
0.029375
0.04
0.053125
0.06
0.045625
0.029375
0.054375
0.086875
0.100625
0.089375
0.080625
0.08125
0.098125
0.12
0.121875
0.116875
0.108125
0.120625
0.14
0.146875
0.14
0.166875
0.178125
0.19375
0.2
0.190625
0.17625
0.186875
0.188125
0.1625
0.14
0.13125
0.12625
0.105625
0.079375
0.044375
0.016875
0.001875
-0.011875
-0.03
-0.05
-0.074375
-0.06125
-0.07875
-0.079375
-0.085625
-0.101875
-0.1
-0.08875
-0.101875
-0.120625
-0.125625
-0.12
-0.1
-0.10625
-0.11375
-0.116875
-0.11125
-0.109375
-0.1